#####################################################################
# Alchemist log file - simulation started at: 2025-12-10T11:25+0000 #
#####################################################################
#
# grid_size = 10.0, range = 2.5, seed = 3.0
#
# The columns have the following meaning: 
# time state[mean] state[min] state[max] 
0.0 0.0 0.0 0.0
0.0016359619213666132 0.0 0.0 0.0
0.10074075644629743 0.009803921568627465 0.0 1.0
0.20682982042257803 0.04901960784313728 0.0 1.0
0.30262600741527734 0.08823529411764702 0.0 1.0
0.40706079314674914 0.17647058823529407 0.0 1.0
0.5152375637293671 0.24509803921568626 0.0 2.0
0.6014017445722171 0.3431372549019608 0.0 2.0
0.7340861447990394 0.4215686274509804 0.0 2.0
0.8010303553665545 0.5098039215686274 0.0 2.0
0.9147050731073998 0.607843137254902 0.0 2.0
1.0016359619213666 0.7450980392156863 0.0 2.0
1.1007407564462974 0.8627450980392156 0.0 2.0
1.206829820422578 0.9411764705882352 0.0 2.0
1.3026260074152773 0.9803921568627451 0.0 2.0
1.4070607931467491 1.0098039215686274 0.0 2.0
1.5152375637293671 0.9901960784313726 0.0 2.0
1.601401744572217 0.9901960784313726 0.0 1.0
1.7340861447990394 0.9901960784313726 0.0 1.0
1.8010303553665545 1.0 1.0 1.0
1.9147050731073998 1.0 1.0 1.0
2.001635961921367 1.0 1.0 1.0
2.1007407564462977 1.0 1.0 1.0
2.206829820422578 1.0 1.0 1.0
2.3026260074152773 1.0 1.0 1.0
2.407060793146749 1.0 1.0 1.0
2.515237563729367 1.0 1.0 1.0
2.6014017445722173 1.0 1.0 1.0
2.7340861447990394 1.0 1.0 1.0
#####################################################################
# End of data export. Simulation finished at: 2025-12-10T11:25+0000 #
#####################################################################
