#####################################################################
# Alchemist log file - simulation started at: 2025-12-10T11:25+0000 #
#####################################################################
#
# grid_size = 10.0, range = 2.5, seed = 0.0
#
# The columns have the following meaning: 
# time state[mean] state[min] state[max] 
0.0 0.0 0.0 0.0
0.0011337332612453288 0.0 0.0 0.0
0.11374688233772967 0.0 0.0 0.0
0.2202413729069077 0.0 0.0 0.0
0.30010620704485436 0.0 0.0 0.0
0.4068192901713781 0.01960784313725493 0.0 2.0
0.5012638264249767 0.11764705882352948 0.0 2.0
0.6114755408353743 0.3529411764705881 0.0 2.0
0.7130729878942585 0.4705882352941176 0.0 2.0
0.8022658455722951 0.7058823529411764 0.0 2.0
0.913723340606136 0.9215686274509804 0.0 2.0
1.0011337332612453 1.0882352941176472 0.0 2.0
1.1137468823377297 1.2549019607843137 0.0 2.0
1.2202413729069077 1.4411764705882353 0.0 2.0
1.3001062070448544 1.627450980392157 0.0 2.0
1.406819290171378 1.696078431372549 0.0 2.0
1.5012638264249767 1.7450980392156863 0.0 2.0
1.6114755408353743 1.7450980392156863 0.0 2.0
1.7130729878942585 1.6960784313725488 1.0 2.0
1.802265845572295 1.5980392156862748 1.0 2.0
1.913723340606136 1.5098039215686274 1.0 2.0
2.0011337332612453 1.4313725490196076 1.0 2.0
2.11374688233773 1.3627450980392155 1.0 2.0
2.2202413729069077 1.284313725490196 1.0 2.0
2.3001062070448546 1.2058823529411764 1.0 2.0
2.406819290171378 1.1666666666666665 1.0 2.0
2.5012638264249767 1.0980392156862746 1.0 2.0
2.6114755408353743 1.0294117647058822 1.0 2.0
2.7130729878942583 1.0294117647058822 1.0 2.0
2.802265845572295 1.0098039215686274 1.0 2.0
2.9137233406061362 1.0 1.0 1.0
3.0011337332612453 1.0 1.0 1.0
3.11374688233773 1.0 1.0 1.0
3.2202413729069077 1.0 1.0 1.0
3.3001062070448546 1.0 1.0 1.0
3.406819290171378 1.0 1.0 1.0
3.5012638264249767 1.0 1.0 1.0
3.6114755408353743 1.0 1.0 1.0
3.7130729878942583 1.0 1.0 1.0
3.802265845572295 1.0 1.0 1.0
#####################################################################
# End of data export. Simulation finished at: 2025-12-10T11:25+0000 #
#####################################################################
