#####################################################################
# Alchemist log file - simulation started at: 2025-12-10T11:25+0000 #
#####################################################################
#
# grid_size = 10.0, range = 2.5, seed = 5.0
#
# The columns have the following meaning: 
# time state[mean] state[min] state[max] 
0.0 0.0 0.0 0.0
0.005246120607406812 0.0 0.0 0.0
0.10587719003887885 0.0 0.0 0.0
0.20388573962728662 0.0 0.0 0.0
0.327389029899815 0.0 0.0 0.0
0.4026290423333374 0.0 0.0 0.0
0.5131002962297242 0.0 0.0 0.0
0.6003942962212285 0.019607843137254888 0.0 1.0
0.7037881092653664 0.019607843137254888 0.0 1.0
0.8162924123322186 0.019607843137254888 0.0 1.0
0.9133235348795941 0.019607843137254888 0.0 1.0
1.0052461206074068 0.10784313725490192 0.0 2.0
1.1058771900388789 0.1568627450980393 0.0 2.0
1.2038857396272866 0.22549019607843132 0.0 2.0
1.327389029899815 0.35294117647058826 0.0 2.0
1.4026290423333374 0.4509803921568627 0.0 2.0
1.5131002962297242 0.5490196078431373 0.0 2.0
1.6003942962212285 0.6372549019607843 0.0 2.0
1.7037881092653664 0.7745098039215687 0.0 2.0
1.8162924123322186 0.8921568627450981 0.0 2.0
1.913323534879594 0.9607843137254901 0.0 2.0
2.005246120607407 1.0 0.0 2.0
2.105877190038879 1.0196078431372548 0.0 2.0
2.2038857396272866 1.0294117647058822 1.0 2.0
2.327389029899815 1.0294117647058822 1.0 2.0
2.4026290423333374 1.0098039215686274 1.0 2.0
2.513100296229724 1.0 1.0 1.0
2.6003942962212285 1.0 1.0 1.0
2.7037881092653664 1.0 1.0 1.0
2.816292412332219 1.0 1.0 1.0
2.913323534879594 1.0 1.0 1.0
3.005246120607407 1.0 1.0 1.0
3.105877190038879 1.0 1.0 1.0
3.2038857396272866 1.0 1.0 1.0
3.327389029899815 1.0 1.0 1.0
#####################################################################
# End of data export. Simulation finished at: 2025-12-10T11:25+0000 #
#####################################################################
