#####################################################################
# Alchemist log file - simulation started at: 2025-12-10T11:25+0000 #
#####################################################################
#
# grid_size = 20.0, range = 3.5, seed = 4.0
#
# The columns have the following meaning: 
# time state[mean] state[min] state[max] 
0.0 0.0 0.0 0.0
0.0022337669741583355 0.0 0.0 0.0
0.10183985776225102 0.0 0.0 0.0
0.20191141577546246 0.0 0.0 0.0
0.30069562883270073 0.0 0.0 0.0
0.4009245937701402 0.0 0.0 0.0
0.5029959430059885 0.009950248756218881 0.0 2.0
0.6004401943367557 0.034825870646766184 0.0 2.0
0.703121384610973 0.062189054726368174 0.0 2.0
0.8036045044018336 0.11940298507462671 0.0 2.0
0.9035148864592821 0.2039800995024875 0.0 2.0
1.0022337669741583 0.3333333333333336 0.0 2.0
1.101839857762251 0.44527363184079616 0.0 2.0
1.2019114157754625 0.5348258706467659 0.0 2.0
1.3006956288327007 0.6218905472636813 0.0 2.0
1.4009245937701402 0.723880597014925 0.0 2.0
1.5029959430059885 0.8383084577114429 0.0 2.0
1.6004401943367557 0.9054726368159203 0.0 2.0
1.703121384610973 0.9676616915422885 0.0 2.0
1.8036045044018336 0.9950248756218907 0.0 2.0
1.9035148864592821 1.0149253731343284 0.0 2.0
2.0022337669741583 1.0024875621890548 1.0 2.0
2.101839857762251 1.0 1.0 1.0
2.2019114157754625 1.0 1.0 1.0
2.3006956288327007 1.0 1.0 1.0
2.4009245937701404 1.0 1.0 1.0
2.5029959430059883 1.0 1.0 1.0
2.6004401943367554 1.0 1.0 1.0
2.7031213846109727 1.0 1.0 1.0
2.8036045044018336 1.0 1.0 1.0
2.9035148864592824 1.0 1.0 1.0
3.0022337669741583 1.0 1.0 1.0
#####################################################################
# End of data export. Simulation finished at: 2025-12-10T11:25+0000 #
#####################################################################
