#####################################################################
# Alchemist log file - simulation started at: 2025-12-10T11:25+0000 #
#####################################################################
#
# grid_size = 10.0, range = 3.5, seed = 13.0
#
# The columns have the following meaning: 
# time state[mean] state[min] state[max] 
0.0 0.0 0.0 0.0
0.009347574279108706 0.0 0.0 0.0
0.10422989950532391 0.0 0.0 0.0
0.23947739040811866 0.0 0.0 0.0
0.3216476257579539 0.0 0.0 0.0
0.4186013253180778 0.0 0.0 0.0
0.502264255922195 0.1568627450980392 0.0 2.0
0.6029513614432052 0.39215686274509803 0.0 2.0
0.7035825520917134 0.735294117647059 0.0 2.0
0.8012480456347673 0.9117647058823529 0.0 2.0
0.9350766585685009 1.0686274509803924 0.0 2.0
1.0093475742791087 1.2745098039215685 0.0 2.0
1.104229899505324 1.4607843137254901 0.0 2.0
1.2394773904081187 1.5490196078431373 0.0 2.0
1.321647625757954 1.627450980392157 0.0 2.0
1.4186013253180778 1.7058823529411764 0.0 2.0
1.502264255922195 1.676470588235294 1.0 2.0
1.6029513614432052 1.558823529411765 1.0 2.0
1.7035825520917134 1.392156862745098 1.0 2.0
1.8012480456347673 1.3039215686274512 1.0 2.0
1.9350766585685009 1.2254901960784315 1.0 2.0
2.0093475742791087 1.127450980392157 1.0 2.0
2.1042298995053237 1.058823529411765 1.0 2.0
2.2394773904081187 1.0392156862745099 1.0 2.0
2.321647625757954 1.0294117647058822 1.0 2.0
2.418601325318078 1.0098039215686274 1.0 2.0
2.502264255922195 1.0 1.0 1.0
2.602951361443205 1.0 1.0 1.0
2.7035825520917136 1.0 1.0 1.0
2.8012480456347673 1.0 1.0 1.0
2.9350766585685006 1.0 1.0 1.0
3.0093475742791087 1.0 1.0 1.0
3.1042298995053237 1.0 1.0 1.0
3.2394773904081187 1.0 1.0 1.0
3.321647625757954 1.0 1.0 1.0
#####################################################################
# End of data export. Simulation finished at: 2025-12-10T11:25+0000 #
#####################################################################
