#####################################################################
# Alchemist log file - simulation started at: 2025-12-10T11:25+0000 #
#####################################################################
#
# grid_size = 10.0, range = 3.5, seed = 27.0
#
# The columns have the following meaning: 
# time state[mean] state[min] state[max] 
0.0 0.0 0.0 0.0
7.905823598768347E-4 0.0 0.0 0.0
0.10084512198226059 0.0 0.0 0.0
0.2032621157072858 0.009803921568627465 0.0 1.0
0.3020823197855125 0.12745098039215685 0.0 1.0
0.40134273955655164 0.21568627450980388 0.0 1.0
0.5159675201462073 0.3627450980392156 0.0 1.0
0.6112575370434359 0.48039215686274506 0.0 1.0
0.7058878295719013 0.5980392156862745 0.0 1.0
0.8125968107288566 0.676470588235294 0.0 1.0
0.9011758652376587 0.7450980392156863 0.0 1.0
1.0007905823598768 0.8333333333333333 0.0 1.0
1.1008451219822606 0.9117647058823529 0.0 1.0
1.2032621157072858 0.9803921568627451 0.0 1.0
1.3020823197855125 1.0 1.0 1.0
1.4013427395565516 1.0 1.0 1.0
1.5159675201462073 1.0 1.0 1.0
1.6112575370434359 1.0 1.0 1.0
1.7058878295719013 1.0 1.0 1.0
1.8125968107288566 1.0 1.0 1.0
1.9011758652376587 1.0 1.0 1.0
2.000790582359877 1.0 1.0 1.0
2.1008451219822604 1.0 1.0 1.0
2.203262115707286 1.0 1.0 1.0
#####################################################################
# End of data export. Simulation finished at: 2025-12-10T11:25+0000 #
#####################################################################
