#####################################################################
# Alchemist log file - simulation started at: 2025-12-10T11:25+0000 #
#####################################################################
#
# grid_size = 20.0, range = 3.5, seed = 2.0
#
# The columns have the following meaning: 
# time state[mean] state[min] state[max] 
0.0 0.0 0.0 0.0
0.0021051854459068764 0.0 0.0 0.0
0.10209543954187916 0.00995024875621888 0.0 2.0
0.20152333573518755 0.05472636815920429 0.0 2.0
0.3017724350437119 0.10945273631840849 0.0 2.0
0.40200615010791063 0.23383084577114382 0.0 2.0
0.5015355556329926 0.3830845771144269 0.0 2.0
0.604378001041495 0.5597014925373126 0.0 2.0
0.707879240895249 0.6766169154228864 0.0 2.0
0.8010496075858999 0.81592039800995 0.0 2.0
0.902328592382122 0.917910447761194 0.0 2.0
1.0021051854459069 1.0174129353233823 0.0 2.0
1.1020954395418792 1.0970149253731363 0.0 2.0
1.2015233357351875 1.1641791044776124 0.0 2.0
1.3017724350437119 1.2089552238805976 0.0 2.0
1.4020061501079106 1.1940298507462686 0.0 2.0
1.5015355556329926 1.1567164179104474 0.0 2.0
1.604378001041495 1.0845771144278609 0.0 2.0
1.707879240895249 1.0497512437810943 1.0 2.0
1.8010496075859 1.0124378109452734 1.0 2.0
1.902328592382122 1.0 1.0 1.0
2.002105185445907 1.0 1.0 1.0
2.102095439541879 1.0 1.0 1.0
2.2015233357351875 1.0 1.0 1.0
2.301772435043712 1.0 1.0 1.0
2.4020061501079106 1.0 1.0 1.0
2.5015355556329926 1.0 1.0 1.0
2.604378001041495 1.0 1.0 1.0
2.707879240895249 1.0 1.0 1.0
2.8010496075858997 1.0 1.0 1.0
#####################################################################
# End of data export. Simulation finished at: 2025-12-10T11:25+0000 #
#####################################################################
