#####################################################################
# Alchemist log file - simulation started at: 2025-12-10T11:25+0000 #
#####################################################################
#
# grid_size = 10.0, range = 2.5, seed = 24.0
#
# The columns have the following meaning: 
# time state[mean] state[min] state[max] 
0.0 0.0 0.0 0.0
0.011265270529036808 0.0 0.0 0.0
0.10489809516732818 0.0 0.0 0.0
0.20112335707543227 0.0 0.0 0.0
0.3101646841519401 0.03921568627450983 0.0 2.0
0.4353918191860404 0.11764705882352967 0.0 2.0
0.5065390893900026 0.13725490196078421 0.0 2.0
0.6092658761416327 0.17647058823529427 0.0 2.0
0.7074564355126385 0.30392156862745057 0.0 2.0
0.8050918386805705 0.38235294117647023 0.0 2.0
0.9108660033607474 0.529411764705882 0.0 2.0
1.0112652705290368 0.6960784313725494 0.0 2.0
1.1048980951673282 0.8235294117647055 0.0 2.0
1.2011233570754323 0.9607843137254901 0.0 2.0
1.31016468415194 1.0784313725490198 0.0 2.0
1.4353918191860404 1.1764705882352946 0.0 2.0
1.5065390893900026 1.2254901960784308 0.0 2.0
1.6092658761416327 1.2941176470588234 0.0 2.0
1.7074564355126385 1.3235294117647058 0.0 2.0
1.8050918386805705 1.3137254901960784 0.0 2.0
1.9108660033607474 1.2647058823529411 1.0 2.0
2.011265270529037 1.1960784313725488 1.0 2.0
2.104898095167328 1.1372549019607843 1.0 2.0
2.2011233570754323 1.0882352941176472 1.0 2.0
2.31016468415194 1.0294117647058822 1.0 2.0
2.4353918191860404 1.0 1.0 1.0
2.5065390893900026 1.0 1.0 1.0
2.6092658761416327 1.0 1.0 1.0
2.7074564355126385 1.0 1.0 1.0
2.8050918386805703 1.0 1.0 1.0
2.9108660033607476 1.0 1.0 1.0
3.011265270529037 1.0 1.0 1.0
3.104898095167328 1.0 1.0 1.0
3.2011233570754323 1.0 1.0 1.0
3.31016468415194 1.0 1.0 1.0
#####################################################################
# End of data export. Simulation finished at: 2025-12-10T11:25+0000 #
#####################################################################
