#####################################################################
# Alchemist log file - simulation started at: 2025-12-10T11:25+0000 #
#####################################################################
#
# grid_size = 10.0, range = 3.5, seed = 9.0
#
# The columns have the following meaning: 
# time state[mean] state[min] state[max] 
0.0 0.0 0.0 0.0
0.007825810686061807 0.0 0.0 0.0
0.1002007826004283 0.0 0.0 0.0
0.21604758486057407 0.0 0.0 0.0
0.30373999084741854 0.009803921568627465 0.0 1.0
0.4141687762727464 0.02941176470588237 0.0 1.0
0.5147651131802631 0.04901960784313728 0.0 1.0
0.601678224919235 0.06862745098039211 0.0 1.0
0.7118816808694466 0.09803921568627447 0.0 1.0
0.8071072265286485 0.19607843137254893 0.0 1.0
0.9010173682672558 0.3235294117647059 0.0 1.0
1.0078258106860618 0.43137254901960775 0.0 1.0
1.1002007826004283 0.5490196078431374 0.0 1.0
1.216047584860574 0.6372549019607846 0.0 1.0
1.3037399908474185 0.6666666666666665 0.0 1.0
1.4141687762727464 0.7745098039215688 0.0 1.0
1.514765113180263 0.8431372549019607 0.0 1.0
1.601678224919235 0.9313725490196078 0.0 1.0
1.7118816808694466 0.9803921568627451 0.0 1.0
1.8071072265286485 1.0 1.0 1.0
1.9010173682672558 1.0 1.0 1.0
2.007825810686062 1.0 1.0 1.0
2.100200782600428 1.0 1.0 1.0
2.216047584860574 1.0 1.0 1.0
2.3037399908474185 1.0 1.0 1.0
2.4141687762727466 1.0 1.0 1.0
2.514765113180263 1.0 1.0 1.0
2.601678224919235 1.0 1.0 1.0
2.7118816808694466 1.0 1.0 1.0
#####################################################################
# End of data export. Simulation finished at: 2025-12-10T11:25+0000 #
#####################################################################
