#####################################################################
# Alchemist log file - simulation started at: 2025-12-10T11:25+0000 #
#####################################################################
#
# grid_size = 10.0, range = 3.5, seed = 15.0
#
# The columns have the following meaning: 
# time state[mean] state[min] state[max] 
0.0 0.0 0.0 0.0
0.00908724843152453 0.0 0.0 0.0
0.1201628862269355 0.0 0.0 0.0
0.20030975471746482 0.0 0.0 0.0
0.31755010097533587 0.009803921568627465 0.0 1.0
0.40701382847103074 0.039215686274509796 0.0 1.0
0.5015459832026468 0.08823529411764713 0.0 1.0
0.6022874650875203 0.19607843137254888 0.0 1.0
0.700541861180916 0.3137254901960785 0.0 1.0
0.812189796028054 0.40196078431372556 0.0 1.0
0.914103197511489 0.5098039215686274 0.0 1.0
1.0090872484315245 0.5980392156862745 0.0 1.0
1.1201628862269355 0.696078431372549 0.0 1.0
1.2003097547174648 0.7941176470588236 0.0 1.0
1.3175501009753359 0.8921568627450981 0.0 1.0
1.4070138284710307 0.9607843137254902 0.0 1.0
1.5015459832026468 0.9803921568627451 0.0 1.0
1.6022874650875203 1.0 1.0 1.0
1.700541861180916 1.0 1.0 1.0
1.812189796028054 1.0 1.0 1.0
1.914103197511489 1.0 1.0 1.0
2.0090872484315243 1.0 1.0 1.0
2.1201628862269355 1.0 1.0 1.0
2.200309754717465 1.0 1.0 1.0
2.317550100975336 1.0 1.0 1.0
2.4070138284710305 1.0 1.0 1.0
2.5015459832026465 1.0 1.0 1.0
#####################################################################
# End of data export. Simulation finished at: 2025-12-10T11:25+0000 #
#####################################################################
