#####################################################################
# Alchemist log file - simulation started at: 2025-12-10T11:25+0000 #
#####################################################################
#
# grid_size = 20.0, range = 2.5, seed = 11.0
#
# The columns have the following meaning: 
# time state[mean] state[min] state[max] 
0.0 0.0 0.0 0.0
0.0028758930102714686 0.0 0.0 0.0
0.1016718009130646 0.0 0.0 0.0
0.20367530022747027 0.0 0.0 0.0
0.30357306879822965 0.0 0.0 0.0
0.40085326877732963 0.0 0.0 0.0
0.5025710213177506 0.0 0.0 0.0
0.6027494822619088 0.0 0.0 0.0
0.7016861202863376 0.0 0.0 0.0
0.800640687160215 0.0024875621890547085 0.0 1.0
0.9014153335939947 0.009950248756218881 0.0 2.0
1.0028758930102715 0.01741293532338307 0.0 2.0
1.1016718009130646 0.029850746268656744 0.0 2.0
1.2036753002274703 0.052238805970149314 0.0 2.0
1.3035730687982297 0.10696517412935316 0.0 2.0
1.4008532687773296 0.15422885572139336 0.0 2.0
1.5025710213177506 0.22885572139303453 0.0 2.0
1.6027494822619088 0.3482587064676621 0.0 2.0
1.7016861202863376 0.48258706467661727 0.0 2.0
1.800640687160215 0.6069651741293542 0.0 2.0
1.9014153335939947 0.7338308457711438 0.0 2.0
2.0028758930102715 0.8283582089552248 0.0 2.0
2.1016718009130644 0.9228855721393042 0.0 2.0
2.20367530022747 0.9900497512437813 0.0 2.0
2.3035730687982294 1.0547263681592032 0.0 2.0
2.40085326877733 1.1144278606965183 0.0 2.0
2.5025710213177508 1.1417910447761188 0.0 2.0
2.602749482261909 1.1268656716417906 0.0 2.0
2.701686120286338 1.0920398009950252 0.0 2.0
2.800640687160215 1.0671641791044775 0.0 2.0
2.9014153335939947 1.0348258706467663 0.0 2.0
3.0028758930102715 1.0248756218905473 1.0 2.0
3.1016718009130644 1.007462686567164 1.0 2.0
3.20367530022747 1.0024875621890548 1.0 2.0
3.3035730687982294 1.0 1.0 1.0
3.40085326877733 1.0 1.0 1.0
3.5025710213177508 1.0 1.0 1.0
3.602749482261909 1.0 1.0 1.0
3.701686120286338 1.0 1.0 1.0
3.800640687160215 1.0 1.0 1.0
3.9014153335939947 1.0 1.0 1.0
4.0028758930102715 1.0 1.0 1.0
4.101671800913064 1.0 1.0 1.0
4.20367530022747 1.0 1.0 1.0
#####################################################################
# End of data export. Simulation finished at: 2025-12-10T11:25+0000 #
#####################################################################
