#####################################################################
# Alchemist log file - simulation started at: 2025-12-10T11:25+0000 #
#####################################################################
#
# grid_size = 20.0, range = 3.5, seed = 8.0
#
# The columns have the following meaning: 
# time state[mean] state[min] state[max] 
0.0 0.0 0.0 0.0
0.001230439556543006 0.0 0.0 0.0
0.10060846706191806 0.0 0.0 0.0
0.20180252291528022 0.0 0.0 0.0
0.3016928261622158 0.00995024875621887 0.0 2.0
0.4021030454446879 0.024875621890547078 0.0 2.0
0.5053951198472859 0.04477611940298485 0.0 2.0
0.6000198348008885 0.10945273631840846 0.0 2.0
0.7001513463979667 0.23383084577114377 0.0 2.0
0.807296246689756 0.3830845771144262 0.0 2.0
0.9001467180821532 0.5621890547263682 0.0 2.0
1.001230439556543 0.72139303482587 0.0 2.0
1.100608467061918 0.8606965174129366 0.0 2.0
1.2018025229152802 1.0696517412935336 0.0 2.0
1.3016928261622158 1.1990049751243756 0.0 2.0
1.402103045444688 1.3009950248756244 0.0 2.0
1.505395119847286 1.4004975124378123 0.0 2.0
1.6000198348008885 1.457711442786069 0.0 2.0
1.7001513463979667 1.4502487562189061 0.0 2.0
1.807296246689756 1.400497512437812 0.0 2.0
1.9001467180821532 1.3184079601990057 1.0 2.0
2.001230439556543 1.2437810945273624 1.0 2.0
2.1006084670619183 1.18407960199005 1.0 2.0
2.2018025229152802 1.1019900497512438 1.0 2.0
2.301692826162216 1.0547263681592036 1.0 2.0
2.402103045444688 1.0273631840796018 1.0 2.0
2.505395119847286 1.007462686567164 1.0 2.0
2.6000198348008885 1.0 1.0 1.0
2.7001513463979667 1.0 1.0 1.0
2.8072962466897557 1.0 1.0 1.0
2.900146718082153 1.0 1.0 1.0
3.001230439556543 1.0 1.0 1.0
3.1006084670619183 1.0 1.0 1.0
3.2018025229152802 1.0 1.0 1.0
3.301692826162216 1.0 1.0 1.0
3.402103045444688 1.0 1.0 1.0
3.505395119847286 1.0 1.0 1.0
#####################################################################
# End of data export. Simulation finished at: 2025-12-10T11:25+0000 #
#####################################################################
